Ewe/V	<I>/mA	time/s
-1.3494740E-001	-7.409008401703734E-004	3.305429927877412E+001
-1.5169616E-001	-7.277333545948556E-004	3.322289927451493E+001
-1.6854446E-001	-6.477005605572345E-004	3.339119927026331E+001
-1.8550354E-001	-7.854398985538066E-004	3.356019926599402E+001
-2.0217161E-001	-7.214384764347749E-004	3.372859926173987E+001
-2.1910645E-001	-7.446571003536413E-004	3.389659925749584E+001
-2.3590417E-001	-6.857623212375130E-004	3.406509925323917E+001
-2.5280595E-001	-6.627178357563029E-004	3.423389924897492E+001
-2.6957348E-001	-7.225529470368929E-004	3.440299924470310E+001
-2.8646725E-001	-7.586194142196537E-004	3.457189924043632E+001
-3.0337349E-001	-7.396331462413523E-004	3.474079923616955E+001
-3.2029864E-001	-7.092862879048215E-004	3.490979923190025E+001
-3.3715025E-001	-8.829709054344465E-004	3.507869922763348E+001
-3.5398000E-001	-8.958764412996621E-004	3.524749922336923E+001
-3.7081063E-001	-7.264040827518578E-004	3.541599921911256E+001
-3.8773587E-001	-7.126428503346084E-004	3.558429921486095E+001
-4.0453425E-001	-6.836199486898818E-004	3.575279921060428E+001
-4.2135644E-001	-8.526489690527453E-004	3.592129920634761E+001
-4.3819839E-001	-8.482191762389582E-004	3.609029920207831E+001
-4.5509470E-001	-8.303829010654490E-004	3.625929919780901E+001
-4.7207481E-001	-7.926574434853131E-004	3.642819919354224E+001
-4.8877850E-001	-8.324383116148915E-004	3.659649918929063E+001
-5.0561982E-001	-8.198560210962123E-004	3.676449918504659E+001
-5.2237761E-001	-8.092971138485318E-004	3.693279918079497E+001
-5.3927481E-001	-8.352833983753978E-004	3.710129917653830E+001
-5.5603212E-001	-8.729490159456498E-004	3.726999917227658E+001
-5.7285643E-001	-8.015528640669643E-004	3.743829916802497E+001
-5.8979279E-001	-8.803767620693612E-004	3.760689916376577E+001
-6.0647577E-001	-7.634472238490161E-004	3.777529915951163E+001
-6.2346935E-001	-8.487178413666002E-004	3.794399915524991E+001
-6.4015722E-001	-8.483265768085609E-004	3.811239915099577E+001
-6.5708333E-001	-8.931241287550747E-004	3.828059914674668E+001
-6.7392147E-001	-8.892144451303702E-004	3.844959914247738E+001
-6.9073761E-001	-8.341471241830600E-004	3.861849913821061E+001
-7.0768565E-001	-9.063276025440027E-004	3.878739913394384E+001
-7.2443575E-001	-1.130712244820357E-003	3.895599912968464E+001
-7.4144655E-001	-8.339659852740766E-004	3.912409912543808E+001
-7.5809473E-001	-8.397242272145267E-004	3.929229912118899E+001
-7.7500349E-001	-9.098711480510675E-004	3.946109911692474E+001
-7.9184461E-001	-9.135699712398901E-004	3.962989911266050E+001
-8.0872053E-001	-8.194123675114001E-004	3.979839910840383E+001
-8.2550275E-001	-9.282921948037346E-004	3.996689910414716E+001
-8.4249699E-001	-9.267145848486230E-004	4.013599909987533E+001
-8.5920352E-001	-8.366797510796446E-004	4.030459909561614E+001
-8.7605143E-001	-1.071291584088273E-003	4.047319909135695E+001
-8.9296901E-001	-9.174370631352680E-004	4.064199908709270E+001
-9.0981954E-001	-9.917505084871500E-004	4.081029908284108E+001
-9.2663646E-001	-1.041534214366570E-003	4.097889907858189E+001
-9.4349235E-001	-8.839521709878874E-004	4.114739907432522E+001
-9.6029133E-001	-1.008330826262041E-003	4.131569907007361E+001
-9.7732037E-001	-9.221379700006561E-004	4.148499906579673E+001
-9.9401450E-001	-8.353619343600570E-004	4.165379906153248E+001
-1.0109651E+000	-9.684885976678111E-004	4.182189905728592E+001
-1.0277421E+000	-1.060181554951668E-003	4.199059905302420E+001
-1.0447707E+000	-8.834361748188751E-004	4.215989904874732E+001
-1.0616314E+000	-1.082487372653870E-003	4.232949904446286E+001
-1.0784795E+000	-9.714143960265192E-004	4.249829904019862E+001
-1.0955083E+000	-1.054171665403839E-003	4.266699903593690E+001
-1.1121454E+000	-9.690659595996964E-004	4.283539903168275E+001
-1.1291335E+000	-9.636206954076812E-004	4.300359902743367E+001
-1.1459372E+000	-9.019863605646133E-004	4.317259902316437E+001
-1.1628566E+000	-9.095863516588535E-004	4.334169901889254E+001
-1.1796261E+000	-9.637737921781471E-004	4.351029901463335E+001
-1.1965659E+000	-1.126282860967892E-003	4.367879901037668E+001
-1.2133977E+000	-9.793560164780939E-004	4.384749900611496E+001
-1.2303083E+000	-1.137431592707402E-003	4.401679900183808E+001
-1.2471515E+000	-1.156780893928440E-003	4.418619899755868E+001
-1.2641191E+000	-9.906818927786776E-004	4.435459899330453E+001
-1.2809453E+000	-1.001363959628326E-003	4.452299898905039E+001
-1.2977316E+000	-1.114126659412041E-003	4.469169898478867E+001
-1.3144990E+000	-1.033262664980290E-003	4.485969898054464E+001
-1.3315008E+000	-1.116149599729538E-003	4.502819897628797E+001
-1.3482125E+000	-1.228247861134513E-003	4.519699897202372E+001
-1.3650678E+000	-1.157304632061910E-003	4.536529896777211E+001
-1.3818536E+000	-1.160547485569880E-003	4.553289896353817E+001
-1.3987215E+000	-1.265624335817117E-003	4.570099895929161E+001
-1.4155389E+000	-1.337426861986200E-003	4.587019895501726E+001
-1.4323896E+000	-1.332261849092119E-003	4.603869895076059E+001
-1.4492731E+000	-1.286861228393301E-003	4.620729894650140E+001
-1.4661263E+000	-1.429350958296540E-003	4.637629894223210E+001
-1.4827750E+000	-1.533326052237213E-003	4.654409893799311E+001
-1.4996500E+000	-1.499132910016396E-003	4.671119893377181E+001
-1.5164295E+000	-1.627983096131470E-003	4.687929892952525E+001
-1.5331883E+000	-1.534769178491472E-003	4.704749892527616E+001
-1.5499389E+000	-1.747860546631463E-003	4.721559892102960E+001
-1.5669141E+000	-1.853989389333389E-003	4.738429891676788E+001
-1.5836623E+000	-2.108596885998758E-003	4.755349891249352E+001
-1.6005180E+000	-2.565661662969813E-003	4.772249890822422E+001
-1.6175508E+000	-2.800795063793160E-003	4.789149890395493E+001
-1.6342640E+000	-3.455243676151451E-003	4.806059889968310E+001
-1.6511657E+000	-4.053150801633345E-003	4.822949889541633E+001
-1.6680357E+000	-4.646736354392528E-003	4.839819889115461E+001
-1.6849556E+000	-5.294429094330647E-003	4.856679888689541E+001
-1.7017884E+000	-5.858421761538848E-003	4.873589888262359E+001
-1.7187302E+000	-6.192292734105348E-003	4.890479887835681E+001
-1.7357227E+000	-6.366035295094608E-003	4.907389887408499E+001
-1.7525576E+000	-6.436363608085499E-003	4.924319886980811E+001
-1.7695644E+000	-6.201427033411394E-003	4.941209886554134E+001
-1.7864028E+000	-6.040778651889206E-003	4.958099886127457E+001
-1.8032529E+000	-5.837458132541676E-003	4.974949885701790E+001
-1.8200623E+000	-5.502899053295096E-003	4.991749885277386E+001
-1.8368472E+000	-5.312941832469692E-003	5.008539884853235E+001
-1.8537203E+000	-5.148427499351529E-003	5.025379884427821E+001
-1.8704170E+000	-5.089174430308270E-003	5.042239884001901E+001
-1.8873903E+000	-4.855354388540276E-003	5.059089883576235E+001
-1.9040235E+000	-4.683498626195187E-003	5.075929883150820E+001
-1.9209008E+000	-4.660898909261191E-003	5.092689882727427E+001
-1.9376975E+000	-4.438603683923813E-003	5.109459882303781E+001
-1.9544801E+000	-4.380486280217782E-003	5.126289881878620E+001
-1.9712955E+000	-4.278122114992025E-003	5.143159881452448E+001
-1.9881444E+000	-4.236614831078143E-003	5.160039881026023E+001
-2.0050406E+000	-4.212930162686840E-003	5.176939880599093E+001
-2.0218720E+000	-4.183590732488321E-003	5.193789880173426E+001
-2.0387154E+000	-4.239743964840503E-003	5.210619879748265E+001
-2.0555878E+000	-4.108545538717062E-003	5.227469879322598E+001
-2.0723712E+000	-4.247112759909896E-003	5.244329878896679E+001
-2.0893459E+000	-4.126434629248037E-003	5.261229878469749E+001
-2.1060655E+000	-4.194625079536607E-003	5.278089878043829E+001
-2.1228261E+000	-4.379282093156009E-003	5.294889877619426E+001
-2.1398017E+000	-4.425007078964649E-003	5.311709877194517E+001
-2.1566999E+000	-4.265624961940051E-003	5.328629876767081E+001
-2.1734350E+000	-4.365710236649167E-003	5.345549876339646E+001
-2.1904473E+000	-4.354502095931559E-003	5.362429875913222E+001
-2.2072401E+000	-4.492683859282115E-003	5.379229875488818E+001
-2.2242022E+000	-4.569349964751793E-003	5.396059875063656E+001
-2.2354481E+000	-4.620720269415915E-003	5.407559874773142E+001
-2.2387786E+000	-4.783884529024361E-003	5.410799874691293E+001
-2.2429862E+000	-4.576272021713276E-003	5.419369874474796E+001
-2.2312891E+000	-4.376510024447527E-003	5.436279874047614E+001
-2.2145467E+000	-4.169479891340509E-003	5.453209873619926E+001
-2.1976666E+000	-3.954813783059195E-003	5.470109873192996E+001
-2.1809800E+000	-3.785740735826632E-003	5.486959872767329E+001
-2.1640539E+000	-3.735500297101749E-003	5.503789872342168E+001
-2.1472814E+000	-3.586948055708611E-003	5.520659871915996E+001
-2.1303816E+000	-3.785055320522597E-003	5.537529871489824E+001
-2.1136885E+000	-3.382821012321638E-003	5.554419871063146E+001
-2.0966845E+000	-3.313314969041088E-003	5.571279870637227E+001
-2.0798633E+000	-3.144973113256781E-003	5.588149870211055E+001
-2.0629385E+000	-3.164423066284935E-003	5.605059869783872E+001
-2.0461531E+000	-3.264902928280342E-003	5.621939869357448E+001
-2.0292683E+000	-3.114900868562670E-003	5.638799868931528E+001
-2.0124741E+000	-3.022546271729376E-003	5.655659868505609E+001
-1.9954413E+000	-3.053490362083564E-003	5.672559868078679E+001
-1.9786638E+000	-2.962060168117120E-003	5.689459867651749E+001
-1.9616425E+000	-2.887257151506671E-003	5.706359867224819E+001
-1.9448043E+000	-2.891529503408853E-003	5.723299866796879E+001
-1.9280038E+000	-2.909180640461854E-003	5.740179866370454E+001
-1.9111497E+000	-2.909257813268330E-003	5.756999865945545E+001
-1.8941932E+000	-2.741905706298106E-003	5.773869865519373E+001
-1.8774183E+000	-2.945331831148352E-003	5.790759865092696E+001
-1.8605855E+000	-2.781583263028398E-003	5.807629864666524E+001
-1.8436621E+000	-2.629424925394881E-003	5.824519864239846E+001
-1.8267123E+000	-2.558723099855029E-003	5.841459863811906E+001
-1.8098568E+000	-2.569190278582552E-003	5.858409863383713E+001
-1.7929009E+000	-2.377461014720569E-003	5.875329862956278E+001
-1.7760079E+000	-2.470100330352901E-003	5.892249862528843E+001
-1.7590944E+000	-2.303531694189245E-003	5.909179862101155E+001
-1.7422185E+000	-2.043649287627302E-003	5.926089861673972E+001
-1.7254347E+000	-1.620852773151892E-003	5.942919861248811E+001
-1.7086539E+000	-1.129737971357490E-003	5.959749860823649E+001
-1.6916473E+000	-7.948909600610510E-004	5.976639860396972E+001
-1.6749167E+000	1.300562892014266E-004	5.993549859969789E+001
-1.6579552E+000	8.554598221488701E-004	6.010449859542859E+001
-1.6411488E+000	1.615196989065378E-003	6.027289859117445E+001
-1.6242502E+000	2.081105193461719E-003	6.044119858692284E+001
-1.6073140E+000	2.410130088837229E-003	6.061019858265354E+001
-1.5904349E+000	2.722822830936248E-003	6.077949857837666E+001
-1.5734527E+000	2.582940062861383E-003	6.094859857410484E+001
-1.5563837E+000	2.417856780110798E-003	6.111799856982543E+001
-1.5396698E+000	2.066992462685084E-003	6.128679856556118E+001
-1.5227946E+000	1.936949883808018E-003	6.145529856130452E+001
-1.5057204E+000	1.481494220733025E-003	6.162449855703017E+001
-1.4891642E+000	1.469694443159949E-003	6.179349855276087E+001
-1.4720281E+000	1.095598921658955E-003	6.196209854850167E+001
-1.4554098E+000	1.018368295356492E-003	6.213009854425763E+001
-1.4385539E+000	8.797097499466319E-004	6.229739854003128E+001
-1.4217122E+000	7.402221809621216E-004	6.246589853577461E+001
-1.4049240E+000	6.762995044823080E-004	6.263499853150279E+001
-1.3879526E+000	5.852202364607759E-004	6.280429852722591E+001
-1.3709787E+000	5.865025623745333E-004	6.297379852294398E+001
-1.3541232E+000	4.698578666897189E-004	6.314289851867215E+001
-1.3372570E+000	2.727622279799671E-004	6.331159851441043E+001
-1.3202626E+000	2.546347360835722E-004	6.348059851014114E+001
-1.3035668E+000	2.874648596558034E-004	6.364899850588699E+001
-1.2866243E+000	2.033958728339087E-004	6.381729850163538E+001
-1.2699901E+000	-2.245185412166439E-005	6.398499849739892E+001
-1.2529763E+000	-5.394362624128174E-005	6.415249849316751E+001
-1.2363371E+000	2.017928459885649E-005	6.432119848890579E+001
-1.2194179E+000	1.260099102876976E-004	6.448969848464913E+001
-1.2026263E+000	6.711342817320863E-005	6.465809848039498E+001
-1.1858553E+000	-1.781790347447557E-004	6.482589847615600E+001
-1.1690897E+000	-2.216688809376158E-004	6.499299847193470E+001
-1.1521760E+000	-2.833063456028915E-004	6.516129846768308E+001
-1.1354284E+000	-2.968535456681427E-004	6.533019846341631E+001
-1.1184739E+000	-4.117081883500510E-004	6.549909845914954E+001
-1.1016890E+000	-2.275427182488587E-004	6.566799845488276E+001
-1.0847398E+000	-2.904941886713057E-004	6.583689845061599E+001
-1.0678440E+000	-3.749120385117596E-004	6.600579844634922E+001
-1.0509049E+000	-3.786930857458091E-004	6.617459844208497E+001
-1.0341364E+000	-3.637798648884238E-004	6.634369843781315E+001
-1.0171751E+000	-3.980528959858284E-004	6.651239843355143E+001
-1.0001827E+000	-6.045601816760905E-004	6.668119842928718E+001
-9.8353779E-001	-4.267605181992205E-004	6.684989842502546E+001
-9.6661973E-001	-4.388034692018560E-004	6.701819842077384E+001
-9.4972897E-001	-5.955743668807634E-004	6.718619841652981E+001
-9.3306935E-001	-5.241471056286456E-004	6.735429841228324E+001
-9.1608214E-001	-5.585514512336963E-004	6.752279840802657E+001
-8.9935505E-001	-4.463665696826701E-004	6.769129840376991E+001
-8.8235277E-001	-5.252043890697933E-004	6.785989839951071E+001
-8.6565369E-001	-5.179507287399613E-004	6.802849839525152E+001
-8.4868616E-001	-5.933190633315125E-004	6.819709839099232E+001
-8.3194548E-001	-5.748444415419780E-004	6.836579838673060E+001
-8.1501454E-001	-5.369898461855677E-004	6.853449838246888E+001
-7.9813308E-001	-5.167150484742002E-004	6.870349837819958E+001
-7.8132254E-001	-5.113536054958360E-004	6.887219837393786E+001
-7.6427126E-001	-6.113680266047628E-004	6.904099836967362E+001
-7.4753749E-001	-5.941224430440623E-004	6.921029836539674E+001
-7.3065645E-001	-7.134535803222002E-004	6.937859836114512E+001
-7.1377194E-001	-6.937899702868901E-004	6.954679835689603E+001
-6.9698197E-001	-6.867837577678210E-004	6.971559835263179E+001
-6.8012673E-001	-7.193194614989254E-004	6.988399834837765E+001
-6.6321868E-001	-6.337621056608160E-004	7.005239834412350E+001
-6.4637738E-001	-6.425955608881616E-004	7.022119833985926E+001
-6.2946469E-001	-7.294791101876523E-004	7.039009833559248E+001
-6.1260498E-001	-7.476744632645173E-004	7.055879833133076E+001
-5.9579754E-001	-7.548238304492891E-004	7.072719832707662E+001
-5.7884127E-001	-8.461199380889383E-004	7.089579832281743E+001
-5.6206453E-001	-7.987600232191860E-004	7.106469831855065E+001
-5.4507029E-001	-7.943109047710423E-004	7.123329831429146E+001
-5.2834052E-001	-7.436337025501661E-004	7.140139831004490E+001
-5.1149231E-001	-8.481262212223402E-004	7.156959830579581E+001
-4.9477613E-001	-7.296544930019706E-004	7.173779830154672E+001
-4.7783598E-001	-6.853410734446355E-004	7.190629829729005E+001
-4.6090844E-001	-7.659945166748859E-004	7.207519829302328E+001
-4.4410473E-001	-7.089441788288367E-004	7.224399828875903E+001
-4.2726898E-001	-8.238238591163948E-004	7.241259828449984E+001
-4.1032258E-001	-8.221048907591233E-004	7.258079828025075E+001
-3.9352950E-001	-8.536112469734874E-004	7.274929827599408E+001
-3.7668851E-001	-8.117850281258270E-004	7.291769827173994E+001
-3.5982949E-001	-7.778592202388988E-004	7.308589826749085E+001
-3.4301257E-001	-7.308886285968632E-004	7.325429826323671E+001
-3.2619831E-001	-7.848814448560906E-004	7.342259825898509E+001
-3.0929717E-001	-7.498944404546251E-004	7.359089825473347E+001
-2.9244518E-001	-9.744394429772128E-004	7.375939825047681E+001
-2.7561095E-001	-8.517214011017470E-004	7.392789824622014E+001
-2.5876963E-001	-9.310632107542762E-004	7.409629824196600E+001
-2.4181043E-001	-8.289866234107036E-004	7.426499823770428E+001
-2.2498144E-001	-7.953586585899113E-004	7.443409823343245E+001
-2.0819281E-001	-7.615665569207248E-004	7.460259822917578E+001
-1.9127421E-001	-7.103176940870559E-004	7.477079822492669E+001
-1.7432031E-001	-5.831909543756921E-004	7.493969822065992E+001
-1.5765442E-001	-8.376696458437796E-004	7.510789821641083E+001
-1.4071465E-001	-7.078701740742821E-004	7.527569821217185E+001
-1.2407707E-001	-6.513986871782224E-004	7.544369820792781E+001
-1.0703453E-001	-6.832592896866760E-004	7.561149820368883E+001
-9.0340219E-002	-7.186838769087695E-004	7.577979819943721E+001
-7.3579825E-002	-5.792175672021083E-004	7.594799819518812E+001
-5.6552917E-002	-7.327531312620291E-004	7.611649819093145E+001
-3.9868414E-002	-6.438712004437537E-004	7.628509818667226E+001
-2.2975361E-002	-4.874906905821420E-004	7.645309818242822E+001
-1.1613895E-002	-5.400788903935725E-004	7.656709817954834E+001
-8.4814020E-003	-4.345349152572453E-004	7.659739817878290E+001
-4.3447334E-003	-6.275528991681757E-004	7.668359817660530E+001
-1.6591659E-002	-8.209020451800803E-004	7.685229817234358E+001
-3.3605620E-002	-7.718408262543976E-004	7.702109816807933E+001
-5.0436396E-002	-8.616776644901764E-004	7.718969816382014E+001
-6.7115091E-002	-9.498312450610322E-004	7.735799815956852E+001
-8.3944209E-002	-1.027542872087176E-003	7.752619815531943E+001
-1.0085435E-001	-9.326090378646741E-004	7.769459815106529E+001
-1.1753804E-001	-1.156430362965716E-003	7.786369814679347E+001
-1.3444079E-001	-1.132598219586844E-003	7.803179814254690E+001
-1.5129904E-001	-1.197603451383530E-003	7.819999813829781E+001
-1.6810654E-001	-1.192183195335240E-003	7.836879813403357E+001
-1.8500130E-001	-1.100690658613986E-003	7.853779812976427E+001
-2.0180695E-001	-1.107437218270158E-003	7.870689812549244E+001
-2.1882255E-001	-1.061722731905470E-003	7.887609812121809E+001
-2.3568574E-001	-1.228554253158286E-003	7.904559811693616E+001
-2.5242680E-001	-1.211942153185631E-003	7.921399811268202E+001
-2.6944676E-001	-1.310777233358752E-003	7.938239810842788E+001
-2.8619179E-001	-1.248788693385084E-003	7.955139810415858E+001
-3.0304852E-001	-1.155955256567282E-003	7.971969809990696E+001
-3.1989434E-001	-1.109685842502669E-003	7.988789809565787E+001
-3.3664647E-001	-1.240326211179255E-003	8.005619809140626E+001
-3.5356531E-001	-1.118798743245678E-003	8.022449808715464E+001
-3.7043166E-001	-1.197388252402494E-003	8.039329808289040E+001
-3.8731691E-001	-1.149313292100510E-003	8.056249807861605E+001
-4.0408158E-001	-1.113415706162927E-003	8.073139807434927E+001
-4.2106509E-001	-1.128190744393343E-003	8.090009807008755E+001
-4.3790242E-001	-1.261814620948007E-003	8.106899806582078E+001
-4.5491293E-001	-1.225208532033836E-003	8.123829806154390E+001
-4.7173640E-001	-1.166929249936558E-003	8.140779805726197E+001
-4.8852223E-001	-1.216427271324420E-003	8.157659805299772E+001
-5.0555784E-001	-1.251279116763962E-003	8.174529804873600E+001
-5.2229607E-001	-1.281636801550325E-003	8.191419804446923E+001
-5.3910416E-001	-1.114324415618175E-003	8.208229804022267E+001
-5.5603093E-001	-1.185993655520491E-003	8.225059803597105E+001
-5.7289857E-001	-1.201272252053878E-003	8.241989803169417E+001
-5.8969986E-001	-1.117404309523743E-003	8.258879802742740E+001
-6.0661680E-001	-1.210759287440557E-003	8.275729802317073E+001
-6.2344986E-001	-1.208179362839183E-003	8.292629801890143E+001
-6.4035660E-001	-1.181266847268483E-003	8.309529801463214E+001
-6.5725166E-001	-1.221817314624724E-003	8.326389801037294E+001
-6.7411566E-001	-1.162247483184845E-003	8.343239800611627E+001
-6.9093376E-001	-1.176949107079469E-003	8.360129800184950E+001
-7.0780271E-001	-1.362810493260650E-003	8.377009799758525E+001
-7.2476494E-001	-1.325883767849232E-003	8.393859799332859E+001
-7.4154758E-001	-1.255644826179782E-003	8.410749798906181E+001
-7.5848705E-001	-1.293222499435375E-003	8.427659798478999E+001
-7.7543861E-001	-1.334450901778467E-003	8.444579798051564E+001
-7.9212910E-001	-1.111189441784767E-003	8.461419797626149E+001
-8.0912280E-001	-1.189042148130540E-003	8.478269797200483E+001
-8.2582343E-001	-1.213441710745946E-003	8.495109796775068E+001
-8.4274161E-001	-1.276518994479198E-003	8.511959796349402E+001
-8.5966706E-001	-1.130086224274279E-003	8.528879795921966E+001
-8.7639749E-001	-1.240495819537067E-003	8.545759795495542E+001
-8.9335424E-001	-1.242353251531683E-003	8.562619795069622E+001
-9.1023993E-001	-1.241926845000695E-003	8.579489794643450E+001
-9.2699873E-001	-1.133735638821568E-003	8.596329794218036E+001
-9.4394743E-001	-1.259951412280661E-003	8.613169793792622E+001
-9.6061957E-001	-1.223198122205789E-003	8.629989793367713E+001
-9.7771007E-001	-1.116884523694453E-003	8.646869792941288E+001
-9.9445361E-001	-1.189460724786422E-003	8.663789792513853E+001
-1.0113560E+000	-1.296581735860617E-003	8.680689792086923E+001
-1.0281786E+000	-1.369675888855625E-003	8.697509791662014E+001
-1.0449905E+000	-1.340960172929073E-003	8.714269791238621E+001
-1.0618737E+000	-1.290046295226568E-003	8.731109790813207E+001
-1.0786600E+000	-1.213240360018068E-003	8.747959790387540E+001
-1.0955038E+000	-1.282170165730380E-003	8.764819789961621E+001
-1.1125302E+000	-1.126267640390779E-003	8.781729789534438E+001
-1.1292500E+000	-1.185728495202222E-003	8.798609789108014E+001
-1.1460650E+000	-1.350088254176729E-003	8.815459788682347E+001
-1.1630063E+000	-1.102561372712971E-003	8.832269788257690E+001
-1.1797764E+000	-1.290151812524357E-003	8.849109787832276E+001
-1.1966788E+000	-1.292184561975570E-003	8.865999787405599E+001
-1.2134550E+000	-1.233319493772289E-003	8.882839786980185E+001
-1.2302727E+000	-1.309229395527045E-003	8.899649786555528E+001
-1.2470645E+000	-1.317632254406995E-003	8.916479786130367E+001
-1.2640163E+000	-1.309603465021905E-003	8.933329785704700E+001
-1.2808818E+000	-1.233486033273404E-003	8.950239785277518E+001
-1.2976096E+000	-1.210856955081966E-003	8.967099784851598E+001
-1.3145903E+000	-1.326317941950709E-003	8.983959784425679E+001
-1.3314846E+000	-1.325130950723676E-003	9.000869783998496E+001
-1.3482602E+000	-1.265301497166871E-003	9.017749783572071E+001
-1.3652334E+000	-1.392635848535859E-003	9.034639783145394E+001
-1.3820940E+000	-1.384208097968617E-003	9.051539782718464E+001
-1.3988285E+000	-1.400117418588162E-003	9.068329782294313E+001
-1.4158128E+000	-1.366110189765998E-003	9.085139781869657E+001
-1.4324983E+000	-1.381204559052005E-003	9.102029781442980E+001
-1.4494828E+000	-1.346647955268895E-003	9.118949781015544E+001
-1.4663657E+000	-1.384216790940990E-003	9.135879780587857E+001
-1.4832782E+000	-1.467323058468480E-003	9.152799780160422E+001
-1.5002831E+000	-1.445523332130190E-003	9.169729779732734E+001
-1.5169952E+000	-1.456753133943091E-003	9.186599779306562E+001
-1.5339103E+000	-1.605598493213884E-003	9.203469778880390E+001
-1.5508312E+000	-1.881868642553179E-003	9.220419778452197E+001
-1.5675638E+000	-2.015560388047096E-003	9.237289778026025E+001
-1.5845296E+000	-2.183525287557345E-003	9.254099777601368E+001
-1.6012790E+000	-2.757920228418483E-003	9.270959777175449E+001
-1.6181598E+000	-3.171342846216167E-003	9.287859776748519E+001
-1.6350918E+000	-3.876523897905826E-003	9.304789776320831E+001
-1.6518737E+000	-4.560532206459536E-003	9.321709775893396E+001
-1.6688681E+000	-5.335173893011053E-003	9.338619775466213E+001
-1.6857455E+000	-6.133928637965635E-003	9.355509775039536E+001
-1.7026438E+000	-6.565112758507158E-003	9.372379774613364E+001
-1.7195697E+000	-6.791064760907156E-003	9.389279774186434E+001
-1.7364702E+000	-6.537709073297010E-003	9.406119773761020E+001
-1.7532890E+000	-6.390194727399726E-003	9.422929773336364E+001
-1.7702091E+000	-6.147973517757074E-003	9.439769772910950E+001
-1.7871097E+000	-5.683736487245232E-003	9.456689772483514E+001
-1.8039176E+000	-5.259737690206254E-003	9.473569772057090E+001
-1.8207396E+000	-5.251948333731778E-003	9.490449771630665E+001
-1.8375720E+000	-4.904690206053043E-003	9.507309771204746E+001
-1.8544436E+000	-4.726859646349002E-003	9.524109770780342E+001
-1.8712256E+000	-4.736528569972642E-003	9.540949770354928E+001
-1.8879676E+000	-4.614462513539697E-003	9.557779769929766E+001
-1.9047327E+000	-4.623381117487113E-003	9.574579769505362E+001
-1.9217962E+000	-4.340325780895396E-003	9.591459769078938E+001
-1.9386168E+000	-4.397096048302351E-003	9.608409768650745E+001
-1.9554763E+000	-4.268799908514946E-003	9.625319768223562E+001
-1.9724275E+000	-4.188725271977865E-003	9.642209767796885E+001
-1.9892216E+000	-4.179248575082468E-003	9.659109767369955E+001
-2.0059514E+000	-4.091495732140772E-003	9.675889766946057E+001
-2.0228677E+000	-4.062883076489211E-003	9.692659766522411E+001
-2.0395365E+000	-4.076906880839865E-003	9.709479766097502E+001
-2.0563638E+000	-4.066443914037050E-003	9.726229765674361E+001
-2.0731485E+000	-4.015638329051024E-003	9.742999765250715E+001
-2.0899646E+000	-4.130357982619737E-003	9.759879764824291E+001
-2.1069682E+000	-4.025754035759267E-003	9.776819764396350E+001
-2.1237979E+000	-4.023939873578207E-003	9.793729763969168E+001
-2.1405308E+000	-4.101044350624944E-003	9.810559763544006E+001
-2.1574869E+000	-3.919745237160079E-003	9.827399763118592E+001
-2.1742427E+000	-4.130437419158250E-003	9.844269762692420E+001
-2.1910303E+000	-4.105403452972882E-003	9.861079762267764E+001
-2.2080400E+000	-4.068207313315989E-003	9.877889761843107E+001
-2.2246959E+000	-4.328151756835701E-003	9.894709761418198E+001
-2.2360504E+000	-4.326556920171080E-003	9.905969761133747E+001
-2.2387471E+000	-4.403825732879341E-003	9.908739761063771E+001
-2.2384963E+000	-3.986843473588429E-003	9.909079761055182E+001
-2.2432539E+000	-4.295521114707865E-003	9.917689760837675E+001
-2.2312586E+000	-4.055752492397799E-003	9.934579760410998E+001
-2.2144690E+000	-3.989151378748335E-003	9.951449759984826E+001
-2.1976676E+000	-3.926727299252517E-003	9.968309759558906E+001
-2.1809752E+000	-3.604416397423045E-003	9.985179759132734E+001
-2.1640968E+000	-3.586418560533856E-003	1.000200975870757E+002
-2.1472409E+000	-3.427271059419435E-003	1.001887975828140E+002
-2.1304138E+000	-3.239048347180626E-003	1.003579975785397E+002
-2.1134958E+000	-3.331400320455265E-003	1.005268975742729E+002
-2.0967107E+000	-3.325440609515423E-003	1.006951975700213E+002
-2.0797832E+000	-3.258863352315788E-003	1.008636975657646E+002
-2.0630591E+000	-3.152472541582782E-003	1.010320975615105E+002
-2.0461807E+000	-3.105048430486784E-003	1.012006975572513E+002
-2.0293615E+000	-3.088762209905914E-003	1.013694975529870E+002
-2.0125177E+000	-3.046030797497636E-003	1.015372975487480E+002
-1.9957072E+000	-3.007344523788230E-003	1.017054975444989E+002
-1.9788014E+000	-3.080599122488370E-003	1.018739975402423E+002
-1.9622607E+000	-2.885702292989750E-003	1.020418975360008E+002
-1.9451535E+000	-3.037736649490357E-003	1.022098975317567E+002
-1.9285592E+000	-2.925943343775464E-003	1.023782975275026E+002
-1.9117118E+000	-2.768260866494598E-003	1.025464975232535E+002
-1.8947724E+000	-2.852413883920643E-003	1.027147975190019E+002
-1.8779877E+000	-2.775719199779248E-003	1.028837975147326E+002
-1.8611847E+000	-2.694462707352591E-003	1.030528975104608E+002
-1.8442193E+000	-2.846715109000378E-003	1.032216975061965E+002
-1.8273442E+000	-2.673953224012378E-003	1.033903975019348E+002
-1.8104504E+000	-2.704111579560135E-003	1.035595974976604E+002
-1.7936689E+000	-2.536605361950751E-003	1.037284974933937E+002
-1.7767032E+000	-2.473686517476231E-003	1.038972974891294E+002
-1.7599788E+000	-2.190788325315982E-003	1.040656974848753E+002
-1.7430894E+000	-2.216250130483915E-003	1.042333974806388E+002
-1.7263628E+000	-1.751592549141236E-003	1.044017974763847E+002
-1.7094750E+000	-1.459903813492935E-003	1.045706974721179E+002
-1.6926439E+000	-8.893062757205673E-004	1.047394974678537E+002
-1.6757462E+000	-1.654543472189836E-004	1.049085974635818E+002
-1.6589024E+000	7.577892011446929E-004	1.050778974593050E+002
-1.6419225E+000	1.381588162950142E-003	1.052467974550382E+002
-1.6250411E+000	2.130210789039168E-003	1.054158974507664E+002
-1.6080589E+000	2.577386378362287E-003	1.055852974464869E+002
-1.5911949E+000	2.734017580895644E-003	1.057540974422227E+002
-1.5741713E+000	2.693909394430288E-003	1.059223974379711E+002
-1.5574627E+000	2.529962172642428E-003	1.060910974337094E+002
-1.5404468E+000	2.141580033017679E-003	1.062598974294451E+002
-1.5237284E+000	1.888509523777629E-003	1.064286974251809E+002
-1.5066864E+000	1.675144151664070E-003	1.065969974209293E+002
-1.4899780E+000	1.512340506444154E-003	1.067660974166574E+002
-1.4731525E+000	1.249155041818031E-003	1.069346974123982E+002
-1.4562135E+000	9.753811971751625E-004	1.071028974081491E+002
-1.4393380E+000	6.772672192610057E-004	1.072718974038798E+002
-1.4225544E+000	7.012719213400067E-004	1.074403973996232E+002
-1.4057605E+000	5.548551107787784E-004	1.076082973953817E+002
-1.3889040E+000	5.364479846189062E-004	1.077768973911225E+002
-1.3720988E+000	6.793046074712334E-004	1.079455973868608E+002
-1.3551209E+000	3.457450111054837E-004	1.081140973826041E+002
-1.3382734E+000	3.976577325300878E-004	1.082829973783373E+002
-1.3215311E+000	1.843596518573366E-004	1.084511973740882E+002
-1.3046587E+000	9.865484364111302E-005	1.086190973698467E+002
-1.2877988E+000	-2.922496514216248E-005	1.087876973655875E+002
-1.2708869E+000	5.811088850377955E-005	1.089567973613157E+002
-1.2541134E+000	-8.203592239503962E-006	1.091255973570514E+002
-1.2371255E+000	-7.327735631398023E-005	1.092942973527897E+002
-1.2203649E+000	-1.149026750204445E-004	1.094625973485381E+002
-1.2035465E+000	1.771186168864312E-005	1.096309973442840E+002
-1.1866241E+000	-3.126201285485021E-004	1.097993973400298E+002
-1.1699581E+000	-2.572768423693953E-004	1.099674973357833E+002
-1.1530527E+000	-2.091594495902476E-004	1.101354973315392E+002
-1.1362170E+000	-3.434141909465214E-004	1.103036973272901E+002
-1.1195245E+000	-2.391268235135944E-004	1.104716973230461E+002
-1.1025797E+000	-3.277593973021464E-004	1.106397973187995E+002
-1.0857190E+000	-4.885051308470703E-004	1.108086973145328E+002
-1.0687548E+000	-5.162962399385797E-004	1.109781973102508E+002
-1.0520606E+000	-3.411686686712219E-004	1.111470973059841E+002
-1.0350109E+000	-6.828993679823953E-004	1.113153973017324E+002
-1.0181648E+000	-4.948056818528967E-004	1.114841972974682E+002
-1.0014186E+000	-4.595121588822255E-004	1.116526972932115E+002
-9.8455358E-001	-4.685351915353873E-004	1.118209972889599E+002
-9.6766376E-001	-5.068250669015440E-004	1.119892972847083E+002
-9.5087099E-001	-5.197563850977086E-004	1.121574972804592E+002
-9.3416309E-001	-6.077266730392453E-004	1.123250972762253E+002
-9.1734242E-001	-6.065099758594671E-004	1.124924972719964E+002
-9.0057445E-001	-5.464081776971885E-004	1.126606972677473E+002
-8.8370246E-001	-5.390863381905999E-004	1.128292972634881E+002
-8.6693603E-001	-5.182501231316937E-004	1.129974972592390E+002
-8.5002530E-001	-6.511722032749977E-004	1.131659972549824E+002
-8.3335239E-001	-5.280405749505834E-004	1.133343972507282E+002
-8.1640434E-001	-7.327753254332565E-004	1.135022972464867E+002
-7.9967445E-001	-6.816672812176867E-004	1.136705972422351E+002
-7.8282863E-001	-7.601697863429593E-004	1.138384972379936E+002
-7.6592064E-001	-6.891768616937976E-004	1.140069972337369E+002
-7.4919772E-001	-7.430655976693422E-004	1.141759972294676E+002
-7.3223400E-001	-6.811960681072128E-004	1.143445972252084E+002
-7.1541643E-001	-7.264049296803934E-004	1.145133972209442E+002
-6.9839227E-001	-7.148910715327121E-004	1.146824972166723E+002
-6.8154502E-001	-7.886613369605076E-004	1.148517972123955E+002
-6.6472411E-001	-6.977461072146720E-004	1.150206972081287E+002
-6.4768332E-001	-8.042627970648308E-004	1.151892972038695E+002
-6.3097596E-001	-7.594168801445759E-004	1.153579971996078E+002
-6.1407501E-001	-6.778246502369975E-004	1.155265971953486E+002
-5.9708083E-001	-8.204026088199385E-004	1.156954971910818E+002
-5.8031023E-001	-8.044341054721047E-004	1.158641971868201E+002
-5.6337667E-001	-7.749042486369893E-004	1.160328971825584E+002
-5.4653406E-001	-7.400252375015671E-004	1.162017971782916E+002
-5.2973497E-001	-7.624224355412199E-004	1.163699971740425E+002
-5.1293582E-001	-8.663097142712142E-004	1.165373971698136E+002
-4.9610442E-001	-9.081352973247785E-004	1.167056971655620E+002
-4.7932640E-001	-8.102954736703919E-004	1.168743971613003E+002
-4.6253026E-001	-8.071247586971669E-004	1.170425971570512E+002
-4.4556630E-001	-8.598706041245980E-004	1.172106971528046E+002
-4.2883277E-001	-7.878020069839835E-004	1.173791971485480E+002
-4.1188642E-001	-9.410706750215959E-004	1.175478971442863E+002
-3.9508629E-001	-8.584178454039571E-004	1.177167971400195E+002
-3.7824568E-001	-8.043862383540056E-004	1.178852971357628E+002
-3.6131299E-001	-6.915005902765874E-004	1.180535971315112E+002
-3.4444541E-001	-7.919699754290604E-004	1.182219971272571E+002
-3.2758489E-001	-8.843835635833665E-004	1.183907971229928E+002
-3.1063518E-001	-8.762771919048028E-004	1.185602971187109E+002
-2.9369611E-001	-8.635755328478892E-004	1.187298971144264E+002
-2.7688813E-001	-9.176213927136988E-004	1.188984971101672E+002
-2.5996512E-001	-8.231475589017233E-004	1.190664971059232E+002
-2.4334368E-001	-8.370827931675866E-004	1.192342971016842E+002
-2.2636384E-001	-7.425116291961339E-004	1.194020970974452E+002
-2.0963970E-001	-7.565466898311101E-004	1.195705970931886E+002
-1.9266166E-001	-7.715745120561827E-004	1.197389970889344E+002
-1.7586546E-001	-7.600645583162001E-004	1.199078970846676E+002
-1.5906712E-001	-7.198356521175113E-004	1.200764970804084E+002
-1.4204296E-001	-7.782760496356476E-004	1.202451970761467E+002
-1.2531248E-001	-7.415658313654764E-004	1.204137970718875E+002
-1.0838345E-001	-7.983377159792998E-004	1.205817970676435E+002
-9.1669247E-002	-6.652728656050509E-004	1.207501970633894E+002
-7.4722022E-002	-6.319393381579224E-004	1.209185970591352E+002
-5.7959519E-002	-7.219302722928367E-004	1.210866970548886E+002
-4.0985294E-002	-6.594911882254473E-004	1.212552970506295E+002
-2.4227299E-002	-6.517341606001557E-004	1.214238970463703E+002
-1.2097697E-002	-7.337437198122409E-004	1.215435970433464E+002
-8.5661598E-003	-6.509838470568265E-004	1.215787970424572E+002
-8.6861067E-003	-6.000546854920685E-004	1.215821970423713E+002
-4.5081866E-003	-6.818262734043347E-004	1.216686970401861E+002
-1.7066503E-002	-8.224478593218398E-004	1.218379970359092E+002
-3.3887949E-002	-1.030426864084468E-003	1.220071970316349E+002
-5.0856613E-002	-1.015134177697502E-003	1.221761970273656E+002
-6.7704432E-002	-1.090266953788249E-003	1.223455970230862E+002
-8.4532730E-002	-1.000998231345470E-003	1.225145970188169E+002
-1.0142047E-001	-1.129967241128266E-003	1.226833970145526E+002
-1.1834680E-001	-1.207510841396326E-003	1.228524970102808E+002
-1.3524364E-001	-1.189229852107697E-003	1.230217970060039E+002
-1.5202865E-001	-1.120145646927247E-003	1.231906970017371E+002
-1.6891150E-001	-1.223932973408988E-003	1.233591969974805E+002
-1.8571150E-001	-1.082651232668201E-003	1.235271969932364E+002
-2.0265956E-001	-1.285417574339264E-003	1.236957969889772E+002
-2.1933745E-001	-1.252065511930285E-003	1.238651969846978E+002
-2.3628359E-001	-1.142456448288224E-003	1.240334969804462E+002
-2.5319061E-001	-1.153222071309764E-003	1.242018969761921E+002
-2.6996696E-001	-1.184791642524500E-003	1.243708969719228E+002
-2.8679436E-001	-1.246558651635681E-003	1.245394969676636E+002
-3.0355656E-001	-1.284314646292825E-003	1.247074969634195E+002
-3.2048029E-001	-1.338624045560126E-003	1.248755969591730E+002
-3.3720660E-001	-1.281174176498995E-003	1.250437969549239E+002
-3.5402140E-001	-1.408659590891308E-003	1.252115969506849E+002
-3.7096354E-001	-1.277485384706937E-003	1.253801969464257E+002
-3.8762635E-001	-1.226887541580058E-003	1.255485969421716E+002
-4.0460309E-001	-1.214841234087532E-003	1.257169969379174E+002
-4.2128706E-001	-1.176507912532531E-003	1.258852969336658E+002
-4.3806055E-001	-1.389560994273014E-003	1.260530969294268E+002
-4.5485920E-001	-1.310019881814856E-003	1.262205969251954E+002
-4.7171274E-001	-1.194869733823834E-003	1.263884969209539E+002
-4.8857498E-001	-1.295045952163867E-003	1.265575969166821E+002
-5.0538647E-001	-1.191713537690407E-003	1.267266969124103E+002
-5.2234942E-001	-1.253179717337384E-003	1.268956969081410E+002
-5.3913426E-001	-1.290846691230731E-003	1.270647969038691E+002
-5.5605173E-001	-1.214553601113771E-003	1.272334968996074E+002
-5.7293969E-001	-1.304017188498676E-003	1.274021968953457E+002
-5.8977562E-001	-1.341910924088156E-003	1.275709968910815E+002
-6.0669219E-001	-1.256198699906050E-003	1.277396968868197E+002
-6.2352890E-001	-1.260991926818340E-003	1.279085968825530E+002
-6.4029801E-001	-1.215659406335617E-003	1.280768968783013E+002
-6.5725797E-001	-1.151977129199523E-003	1.282450968740523E+002
-6.7394060E-001	-1.334091300308237E-003	1.284134968697981E+002
-6.9083685E-001	-1.286135738127036E-003	1.285818968655440E+002
-7.0774013E-001	-1.251457957913939E-003	1.287504968612848E+002
-7.2452736E-001	-1.192630289509158E-003	1.289189968570281E+002
-7.4144191E-001	-1.209280806495966E-003	1.290873968527740E+002
-7.5809348E-001	-1.330972552155337E-003	1.292553968485299E+002
-7.7500463E-001	-1.234845295368679E-003	1.294231968442909E+002
-7.9181641E-001	-1.238527591779062E-003	1.295914968400393E+002
-8.0863917E-001	-1.298112184964017E-003	1.297602968357751E+002
-8.2539970E-001	-1.234008208248235E-003	1.299284968315260E+002
-8.4233832E-001	-1.275390172367871E-003	1.300967968272744E+002
-8.5904843E-001	-1.200711560597456E-003	1.302650968230228E+002
-8.7596810E-001	-1.173046192310989E-003	1.304336968187636E+002
-8.9264810E-001	-1.362200388386121E-003	1.306016968145195E+002
-9.0957117E-001	-1.316134248528882E-003	1.307693968102831E+002
-9.2630661E-001	-1.264325347571735E-003	1.309378968060264E+002
-9.4330478E-001	-1.189661138693808E-003	1.311065968017647E+002
-9.6005714E-001	-1.273827971700924E-003	1.312755967974954E+002
-9.7691214E-001	-1.264536485172506E-003	1.314441967932362E+002
-9.9395967E-001	-1.263914853840173E-003	1.316128967889745E+002
-1.0107069E+000	-1.223744053069926E-003	1.317818967847052E+002
-1.0276464E+000	-1.202346069926849E-003	1.319502967804510E+002
-1.0443932E+000	-1.273010301011511E-003	1.321186967761969E+002
-1.0611559E+000	-1.295003550863047E-003	1.322866967719528E+002
-1.0781054E+000	-1.292245788170401E-003	1.324547967677063E+002
-1.0949343E+000	-1.294221977564323E-003	1.326235967634420E+002
-1.1118462E+000	-1.253598095492664E-003	1.327923967591778E+002
-1.1286353E+000	-1.273568969564575E-003	1.329610967549161E+002
-1.1454929E+000	-1.439759992173552E-003	1.331300967506468E+002
-1.1623521E+000	-1.454512618540051E-003	1.332987967463851E+002
-1.1791956E+000	-1.322456869897492E-003	1.334663967421511E+002
-1.1960095E+000	-1.390697470023655E-003	1.336343967379071E+002
-1.2126526E+000	-1.231468554308911E-003	1.338025967336580E+002
-1.2296076E+000	-1.356024856750949E-003	1.339706967294114E+002
-1.2463670E+000	-1.463068096019423E-003	1.341393967251497E+002
-1.2633878E+000	-1.403638521624517E-003	1.343083967208804E+002
-1.2801901E+000	-1.326386552293547E-003	1.344776967166035E+002
-1.2971469E+000	-1.325430819860223E-003	1.346469967123267E+002
-1.3140615E+000	-1.307351765090847E-003	1.348164967080447E+002
-1.3310527E+000	-1.295282130877240E-003	1.349860967037603E+002
-1.3479443E+000	-1.190703923382498E-003	1.351549966994935E+002
-1.3647770E+000	-1.345039889766388E-003	1.353234966952368E+002
-1.3815366E+000	-1.390291020369051E-003	1.354919966909802E+002
-1.3983867E+000	-1.372602524312337E-003	1.356601966867311E+002
-1.4151950E+000	-1.396829386911069E-003	1.358278966824946E+002
-1.4320080E+000	-1.340592998517838E-003	1.359955966782582E+002
-1.4487035E+000	-1.368044315343611E-003	1.361639966740040E+002
-1.4656951E+000	-1.330661820298152E-003	1.363327966697398E+002
-1.4824737E+000	-1.486565364738481E-003	1.365018966654679E+002
-1.4994318E+000	-1.531295069308034E-003	1.366709966611961E+002
-1.5162585E+000	-1.602799690979984E-003	1.368398966569293E+002
-1.5332503E+000	-1.638093446207238E-003	1.370086966526651E+002
-1.5498810E+000	-1.822678571911762E-003	1.371774966484008E+002
-1.5667943E+000	-2.034618719099636E-003	1.373454966441568E+002
-1.5835987E+000	-2.153186434788609E-003	1.375139966399001E+002
-1.6005129E+000	-2.675065272464878E-003	1.376831966356258E+002
-1.6172831E+000	-3.183504340468686E-003	1.378519966313615E+002
-1.6340812E+000	-3.985354514325690E-003	1.380202966271099E+002
-1.6508898E+000	-4.796299551649695E-003	1.381884966228608E+002
-1.6677715E+000	-5.578249326611585E-003	1.383569966186042E+002
-1.6845989E+000	-6.157085035273291E-003	1.385255966143450E+002
-1.7014436E+000	-6.644295202194395E-003	1.386934966101035E+002
-1.7183506E+000	-6.759492747167868E-003	1.388615966058569E+002
-1.7351558E+000	-6.739585655653496E-003	1.390295966016129E+002
-1.7520531E+000	-6.465614862894042E-003	1.391979965973587E+002
-1.7689633E+000	-6.076461373964503E-003	1.393669965930894E+002
-1.7857399E+000	-5.798632392541005E-003	1.395357965888252E+002
-1.8025872E+000	-5.540587180865475E-003	1.397037965845811E+002
-1.8193277E+000	-5.246237416180174E-003	1.398716965803396E+002
-1.8362889E+000	-5.148269998580021E-003	1.400404965760754E+002
-1.8530557E+000	-4.834461124883040E-003	1.402092965718111E+002
-1.8699380E+000	-4.699509505259443E-003	1.403780965675469E+002
-1.8867880E+000	-4.540298058545798E-003	1.405468965632826E+002
-1.9035609E+000	-4.571577166555527E-003	1.407155965590209E+002
-1.9205554E+000	-4.416282462996177E-003	1.408844965547542E+002
-1.9374971E+000	-4.295670917375420E-003	1.410536965504798E+002
-1.9542882E+000	-4.271040991915345E-003	1.412228965462054E+002
-1.9711381E+000	-4.238159753044410E-003	1.413917965419387E+002
-1.9881603E+000	-4.096698406626700E-003	1.415605965376744E+002
-2.0049281E+000	-4.103782951588135E-003	1.417297965334001E+002
-2.0217869E+000	-4.018228991683389E-003	1.418981965291459E+002
-2.0386336E+000	-4.089191096808475E-003	1.420662965248994E+002
-2.0554392E+000	-3.943401277188646E-003	1.422347965206427E+002
-2.0722365E+000	-4.032401213588374E-003	1.424031965163886E+002
-2.0891140E+000	-3.955945046035650E-003	1.425714965121369E+002
-2.1058595E+000	-4.108236964172826E-003	1.427396965078879E+002
-2.1227314E+000	-3.970007955026909E-003	1.429078965036388E+002
-2.1395998E+000	-3.953108984108434E-003	1.430762964993846E+002
-2.1563189E+000	-4.168647515645954E-003	1.432453964951128E+002
-2.1732843E+000	-4.134125831411067E-003	1.434140964908511E+002
-2.1901815E+000	-4.065794771351688E-003	1.435828964865868E+002
-2.2071373E+000	-4.124725707900782E-003	1.437517964823201E+002
-2.2238700E+000	-4.285624627217301E-003	1.439202964780634E+002
-2.2354379E+000	-4.267280830326251E-003	1.440363964751305E+002
-2.2392023E+000	-4.317883302324584E-003	1.440721964742261E+002
-2.2431335E+000	-4.252821152660086E-003	1.441582964720510E+002
-2.2311862E+000	-3.952026321147467E-003	1.443270964677868E+002
-2.2143998E+000	-3.743419250628752E-003	1.444959964635200E+002
-2.1974831E+000	-3.859447666376768E-003	1.446647964592557E+002
-2.1808307E+000	-3.697280612085810E-003	1.448333964549965E+002
-2.1638939E+000	-3.523195709308771E-003	1.450016964507449E+002
-2.1471581E+000	-3.434918454834665E-003	1.451700964464908E+002
-2.1302443E+000	-3.412656593014977E-003	1.453387964422291E+002
-2.1134250E+000	-3.445447734163179E-003	1.455074964379673E+002
-2.0966060E+000	-3.415259867724771E-003	1.456763964337006E+002
-2.0797379E+000	-3.217921671407588E-003	1.458452964294338E+002
-2.0628281E+000	-3.163291295621679E-003	1.460137964251771E+002
-2.0460687E+000	-3.122378550502024E-003	1.461820964209255E+002
-2.0293705E+000	-3.018264252711685E-003	1.463497964166891E+002
-2.0124693E+000	-3.028514893342563E-003	1.465177964124450E+002
-1.9956565E+000	-3.041714187866587E-003	1.466861964081909E+002
-1.9787517E+000	-3.069600620751352E-003	1.468542964039443E+002
-1.9620166E+000	-2.988583092658523E-003	1.470226963996902E+002
-1.9451191E+000	-2.954336562108922E-003	1.471915963954234E+002
-1.9284245E+000	-2.924334274522537E-003	1.473597963911743E+002
-1.9115022E+000	-2.887895594528414E-003	1.475277963869303E+002
-1.8946813E+000	-2.854544843390198E-003	1.476965963826660E+002
-1.8778950E+000	-2.811966426624599E-003	1.478651963784068E+002
-1.8609313E+000	-2.869639233108373E-003	1.480338963741451E+002
-1.8441457E+000	-2.737114230779250E-003	1.482027963698783E+002
-1.8272837E+000	-2.659394898339015E-003	1.483714963656166E+002
-1.8102905E+000	-2.739317530744259E-003	1.485402963613524E+002
-1.7935370E+000	-2.660715226154468E-003	1.487092963570831E+002
-1.7765731E+000	-2.437613355785552E-003	1.488785963528062E+002
-1.7597944E+000	-2.328962041861029E-003	1.490474963485394E+002
-1.7429000E+000	-2.144426791042715E-003	1.492157963442878E+002
-1.7260351E+000	-1.838400693372579E-003	1.493844963400261E+002
-1.7092484E+000	-1.386223478934418E-003	1.495531963357644E+002
-1.6924430E+000	-8.411781769147887E-004	1.497217963315052E+002
-1.6755146E+000	-1.772147220804799E-004	1.498903963272460E+002
-1.6586525E+000	6.357644042693754E-004	1.500592963229792E+002
-1.6419308E+000	1.403409414949684E-003	1.502280963187150E+002
-1.6248890E+000	2.065485079316021E-003	1.503966963144558E+002
-1.6079849E+000	2.455026824111776E-003	1.505657963101839E+002
-1.5910071E+000	2.669891832899835E-003	1.507351963059045E+002
-1.5740867E+000	2.620784779756925E-003	1.509046963016226E+002
-1.5571393E+000	2.514014500892866E-003	1.510737962973508E+002
-1.5402941E+000	2.089388927490960E-003	1.512418962931042E+002
-1.5234910E+000	1.872224921932716E-003	1.514099962888577E+002
-1.5064870E+000	1.624342423201322E-003	1.515791962845833E+002
-1.4897320E+000	1.490287774351728E-003	1.517487962802988E+002
-1.4727114E+000	1.194786480005722E-003	1.519179962760245E+002
-1.4559164E+000	1.050650969725770E-003	1.520866962717628E+002
-1.4389119E+000	8.110226268303270E-004	1.522555962674960E+002
-1.4222122E+000	6.385354777448394E-004	1.524240962632393E+002
-1.4053159E+000	4.591154825016211E-004	1.525924962589852E+002
-1.3884958E+000	5.456001542587848E-004	1.527609962547285E+002
-1.3715453E+000	3.093402429333167E-004	1.529296962504668E+002
-1.3548567E+000	2.386732361898065E-004	1.530981962462101E+002
-1.3379022E+000	2.672363705113643E-004	1.532663962419610E+002
-1.3210787E+000	6.487177864336223E-005	1.534350962376993E+002
-1.3041607E+000	5.658247897304147E-005	1.536039962334326E+002
-1.2874333E+000	2.387792034037547E-005	1.537722962291809E+002
-1.2703569E+000	-1.552623882079158E-004	1.539409962249192E+002
-1.2536265E+000	-3.397663340758321E-004	1.541102962206423E+002
-1.2368186E+000	-4.305955505397828E-005	1.542786962163882E+002
-1.2198026E+000	-3.376939902707877E-004	1.544469962121366E+002
-1.2030447E+000	-3.232426886973570E-004	1.546157962078723E+002
-1.1860702E+000	-3.502065124623738E-004	1.547849962035980E+002
-1.1692894E+000	-4.358251315183664E-004	1.549535961993388E+002
-1.1524210E+000	-4.909690531497454E-004	1.551221961950796E+002
-1.1355833E+000	-2.550858532357298E-004	1.552910961908128E+002
-1.1186329E+000	-3.402325342934122E-004	1.554595961865562E+002
-1.1018714E+000	-4.370929638309509E-004	1.556278961823045E+002
-1.0849918E+000	-3.815197521578411E-004	1.557961961780529E+002
-1.0682453E+000	-3.363579958142720E-004	1.559643961738038E+002
-1.0513979E+000	-4.690823140093576E-004	1.561320961695674E+002
-1.0345827E+000	-6.040682919104890E-004	1.562997961653309E+002
-1.0177455E+000	-7.017399709607791E-004	1.564683961610717E+002
-1.0008816E+000	-5.649447397353402E-004	1.566373961568024E+002
-9.8414588E-001	-5.736596257313788E-004	1.568056961525508E+002
-9.6726245E-001	-6.278766853051090E-004	1.569736961483068E+002
-9.5046312E-001	-5.097849161082172E-004	1.571416961440627E+002
-9.3362021E-001	-7.143667750035068E-004	1.573094961398238E+002
-9.1687870E-001	-6.554887040703776E-004	1.574777961355721E+002
-8.9993674E-001	-5.241837562913621E-004	1.576463961313129E+002
-8.8323736E-001	-6.516235495560140E-004	1.578146961270613E+002
-8.6631459E-001	-6.489428734788010E-004	1.579824961228223E+002
-8.4951276E-001	-5.841354916945925E-004	1.581513961185556E+002
-8.3256793E-001	-7.674273355286190E-004	1.583205961142812E+002
-8.1582856E-001	-6.646614511511342E-004	1.584892961100195E+002
-7.9894435E-001	-5.410887460085599E-004	1.586576961057654E+002
-7.8196609E-001	-7.609438449421857E-004	1.588264961015011E+002
-7.6515502E-001	-6.559929354081782E-004	1.589955960972293E+002
-7.4818832E-001	-7.849111807906595E-004	1.591645960929600E+002
-7.3146003E-001	-6.604828956448504E-004	1.593332960886983E+002
-7.1447611E-001	-7.234151741990068E-004	1.595016960844441E+002
-6.9775248E-001	-7.733990609388730E-004	1.596700960801900E+002
-6.8077272E-001	-8.130546381557788E-004	1.598385960759333E+002
-6.6399771E-001	-8.350939848250707E-004	1.600072960716716E+002
-6.4701509E-001	-8.406089825572192E-004	1.601760960674073E+002
-6.3024533E-001	-8.828240427825197E-004	1.603449960631406E+002
-6.1336493E-001	-8.773707292588709E-004	1.605136960588789E+002
-5.9637713E-001	-8.207259770905704E-004	1.606827960546070E+002
-5.7951736E-001	-9.069437111389363E-004	1.608517960503377E+002
-5.6276107E-001	-7.811990467743515E-004	1.610198960460912E+002
-5.4576457E-001	-8.152303450920731E-004	1.611883960418345E+002
-5.2904224E-001	-8.094150465445295E-004	1.613571960375702E+002
-5.1201421E-001	-8.439815526572539E-004	1.615259960333060E+002
-4.9523407E-001	-7.934081079571057E-004	1.616950960290342E+002
-4.7829318E-001	-8.278629632623470E-004	1.618643960247573E+002
-4.6142715E-001	-7.927133389621158E-004	1.620334960204855E+002
-4.4443628E-001	-8.490122522957378E-004	1.622026960162111E+002
-4.2748016E-001	-9.304697935042898E-004	1.623722960119267E+002
-4.1061187E-001	-8.922723048505350E-004	1.625412960076574E+002
-3.9376801E-001	-7.241021859841507E-004	1.627099960033956E+002
-3.7686440E-001	-8.703653504383785E-004	1.628787959991314E+002
-3.5996178E-001	-8.789072900121410E-004	1.630470959948798E+002
-3.4314957E-001	-8.545351336003591E-004	1.632157959906181E+002
-3.2613543E-001	-7.984278900495419E-004	1.633850959863412E+002
-3.0925944E-001	-8.590752264762361E-004	1.635543959820643E+002
-2.9246417E-001	-7.971880484057975E-004	1.637226959778127E+002
-2.7559254E-001	-8.840610297224088E-004	1.638907959735661E+002
-2.5870231E-001	-7.297331663253907E-004	1.640594959693044E+002
-2.4202089E-001	-7.235493326200769E-004	1.642274959650604E+002
-2.2509371E-001	-8.699775863408431E-004	1.643950959608264E+002
-2.0829569E-001	-8.931213626757178E-004	1.645629959565849E+002
-1.9163944E-001	-7.553522318618673E-004	1.647310959523384E+002
-1.7465317E-001	-7.397950492913884E-004	1.648996959480792E+002
-1.5791745E-001	-6.929996417284626E-004	1.650678959438301E+002
-1.4100622E-001	-6.915728627604947E-004	1.652362959395759E+002
-1.2417996E-001	-7.225932683627345E-004	1.654048959353167E+002
-1.0736378E-001	-6.624598691565824E-004	1.655731959310651E+002
-9.0402253E-002	-7.773676218355867E-004	1.657416959268085E+002
-7.3675081E-002	-6.471478823275000E-004	1.659101959225518E+002
-5.6832667E-002	-5.297724981489392E-004	1.660782959183052E+002
-3.9926771E-002	-5.555876540598850E-004	1.662470959140410E+002
-2.3040147E-002	-5.829465910844782E-004	1.664155959097843E+002
-1.1589259E-002	-6.244174232733161E-004	1.665297959068994E+002
-8.7192468E-003	-9.565586806274951E-004	1.665587959061668E+002
-8.5175205E-003	-2.053537270209444E-004	1.665621959060809E+002
-4.6007391E-003	-7.255964031133953E-004	1.666486959038957E+002
-1.7239621E-002	-7.578710711166562E-004	1.668175958996289E+002
-3.4135435E-002	-9.147608382002771E-004	1.669865958953596E+002
-5.0900564E-002	-1.107717905371380E-003	1.671552958910979E+002
-6.7726627E-002	-1.005894590404070E-003	1.673234958868488E+002
-8.4552415E-002	-1.074371189638946E-003	1.674915958826023E+002
-1.0126704E-001	-1.195150454918149E-003	1.676597958783532E+002
-1.1810250E-001	-1.147702110166564E-003	1.678276958741117E+002
-1.3500744E-001	-1.135596085972376E-003	1.679960958698575E+002
-1.5163992E-001	-1.150318673649234E-003	1.681645958656009E+002
-1.6844374E-001	-1.272451714049624E-003	1.683323958613619E+002
-1.8534786E-001	-1.130613067750034E-003	1.685004958571153E+002
-2.0197119E-001	-1.247213847870961E-003	1.686686958528662E+002
-2.1895841E-001	-1.208542408319468E-003	1.688370958486121E+002
-2.3574941E-001	-1.329727019247562E-003	1.690058958443478E+002
-2.5261143E-001	-1.295378327876943E-003	1.691745958400861E+002
-2.6936567E-001	-1.295791628872157E-003	1.693425958358421E+002
-2.8624329E-001	-1.278748232269044E-003	1.695105958315980E+002
-3.0308336E-001	-1.235789959395308E-003	1.696792958273363E+002
-3.2002488E-001	-1.234626552061430E-003	1.698484958230620E+002
-3.3685833E-001	-1.242417820665913E-003	1.700175958187901E+002
-3.5379839E-001	-1.185747640037246E-003	1.701869958145107E+002
-3.7055600E-001	-1.287629222256720E-003	1.703555958102515E+002
-3.8750041E-001	-1.240994308724882E-003	1.705234958060100E+002
-4.0415061E-001	-1.272941396718567E-003	1.706915958017635E+002
-4.2103159E-001	-1.231104618747822E-003	1.708593957975245E+002
-4.3789133E-001	-1.275904004040005E-003	1.710277957932703E+002
-4.5466158E-001	-1.279391816987268E-003	1.711964957890086E+002
-4.7150305E-001	-1.201419760543493E-003	1.713647957847570E+002
-4.8839527E-001	-1.266267541951218E-003	1.715332957805003E+002
-5.0516164E-001	-1.442006181878926E-003	1.717022957762310E+002
-5.2204615E-001	-1.206348690541068E-003	1.718707957719744E+002
-5.3883773E-001	-1.237242280126786E-003	1.720385957677354E+002
-5.5564028E-001	-1.330918091649178E-003	1.722068957634838E+002
-5.7256925E-001	-1.202630354267416E-003	1.723755957592221E+002
-5.8934021E-001	-1.301931773437476E-003	1.725442957549603E+002
-6.0630798E-001	-1.182940914856261E-003	1.727132957506910E+002
-6.2313604E-001	-1.256573000122149E-003	1.728821957464243E+002
-6.3998199E-001	-1.266132843576847E-003	1.730508957421625E+002
-6.5708286E-001	-1.169499926001761E-003	1.732202957378831E+002
-6.7374653E-001	-1.325464237284472E-003	1.733896957336037E+002
-6.9073260E-001	-1.220552391969804E-003	1.735579957293521E+002
-7.0768553E-001	-1.108614650000068E-003	1.737266957250904E+002
-7.2451037E-001	-1.174932891492970E-003	1.738959957208135E+002
-7.4143845E-001	-1.254709174618493E-003	1.740653957165341E+002
-7.5826901E-001	-1.274931500882818E-003	1.742343957122648E+002
-7.7517253E-001	-1.280335354141896E-003	1.744030957080031E+002
-7.9207915E-001	-1.285146541611180E-003	1.745718957037388E+002
-8.0891687E-001	-1.125358135711414E-003	1.747403956994822E+002
-8.2576376E-001	-1.253382263280044E-003	1.749087956952280E+002
-8.4254289E-001	-1.185786641170566E-003	1.750766956909865E+002
-8.5931289E-001	-1.317970334899070E-003	1.752446956867425E+002
-8.7611926E-001	-1.224483562993799E-003	1.754128956824934E+002
-8.9300418E-001	-1.224344252386933E-003	1.755811956782418E+002
-9.0971971E-001	-1.251380150111701E-003	1.757495956739876E+002
-9.2654347E-001	-1.423469847196178E-003	1.759175956697436E+002
-9.4349271E-001	-1.257332033084757E-003	1.760857956654945E+002
-9.6023965E-001	-1.342525508227145E-003	1.762543956612353E+002
-9.7713590E-001	-1.392809533794961E-003	1.764230956569736E+002
-9.9401581E-001	-1.314504163324209E-003	1.765915956527169E+002
-1.0109141E+000	-1.351397807263977E-003	1.767605956484476E+002
-1.0277858E+000	-1.153654978649964E-003	1.769293956441834E+002
-1.0446297E+000	-1.389997339007867E-003	1.770983956399141E+002
-1.0615660E+000	-1.391743970893779E-003	1.772675956356397E+002
-1.0785520E+000	-1.311481086547221E-003	1.774364956313730E+002
-1.0954052E+000	-1.324132626622995E-003	1.776056956270986E+002
-1.1123422E+000	-1.283285242339446E-003	1.777750956228192E+002
-1.1292429E+000	-1.162164574390799E-003	1.779444956185398E+002
-1.1460398E+000	-1.338771061398071E-003	1.781130956142806E+002
-1.1628500E+000	-1.334662572965505E-003	1.782804956100517E+002
-1.1797312E+000	-1.363022139840801E-003	1.784482956058127E+002
-1.1963106E+000	-1.397919070466255E-003	1.786163956015662E+002
-1.2132336E+000	-1.369226389812801E-003	1.787841955973272E+002
-1.2300122E+000	-1.360585987774658E-003	1.789527955930680E+002
-1.2469343E+000	-1.214823764030083E-003	1.791214955888063E+002
-1.2635872E+000	-1.345520881546311E-003	1.792895955845597E+002
-1.2806383E+000	-1.431393985430799E-003	1.794579955803056E+002
-1.2974383E+000	-1.452876237608352E-003	1.796270955760338E+002
-1.3141690E+000	-1.381537646461503E-003	1.797955955717771E+002
-1.3311287E+000	-1.318915957895692E-003	1.799636955675305E+002
-1.3478545E+000	-1.330102369013968E-003	1.801319955632789E+002
-1.3648121E+000	-1.364896565148131E-003	1.803002955590273E+002
-1.3815958E+000	-1.218390612028022E-003	1.804690955547630E+002
-1.3984928E+000	-1.340322654967053E-003	1.806379955504963E+002
-1.4153048E+000	-1.398955586014112E-003	1.808065955462371E+002
-1.4321477E+000	-1.400364604900110E-003	1.809750955419804E+002
-1.4490073E+000	-1.332315721848501E-003	1.811436955377212E+002
-1.4657365E+000	-1.385777278001021E-003	1.813116955334772E+002
-1.4826409E+000	-1.502732450701177E-003	1.814799955292256E+002
-1.4995021E+000	-1.388584742937113E-003	1.816486955249638E+002
-1.5162885E+000	-1.555134413929446E-003	1.818171955207072E+002
-1.5331727E+000	-1.650060633668843E-003	1.819858955164455E+002
-1.5498979E+000	-1.900565492659809E-003	1.821544955121863E+002
-1.5668753E+000	-2.081717392790271E-003	1.823233955079195E+002
-1.5837557E+000	-2.316157341361859E-003	1.824925955036451E+002
-1.6004508E+000	-2.853654586492508E-003	1.826611954993859E+002
-1.6174334E+000	-3.277272952999455E-003	1.828295954951318E+002
-1.6342775E+000	-4.053124991168500E-003	1.829986954908600E+002
-1.6510452E+000	-4.841134267417530E-003	1.831676954865907E+002
-1.6679829E+000	-5.743280435975891E-003	1.833363954823290E+002
-1.6848681E+000	-6.375402513829079E-003	1.835050954780672E+002
-1.7017844E+000	-6.697831079744782E-003	1.836735954738106E+002
-1.7185882E+000	-6.869610230789469E-003	1.838419954695564E+002
-1.7355421E+000	-6.756750591940447E-003	1.840100954653099E+002
-1.7523314E+000	-6.419918960744586E-003	1.841782954610608E+002
-1.7691681E+000	-6.079883892989996E-003	1.843465954568092E+002
-1.7860978E+000	-5.854685374173347E-003	1.845152954525474E+002
-1.8028371E+000	-5.533555582338714E-003	1.846843954482756E+002
-1.8197975E+000	-5.231529153998937E-003	1.848530954440139E+002
-1.8367110E+000	-5.073186924593069E-003	1.850222954397395E+002
-1.8535091E+000	-4.786080725476410E-003	1.851911954354728E+002
-1.8702321E+000	-4.764949997694903E-003	1.853591954312287E+002
-1.8871926E+000	-4.522104226636535E-003	1.855274954269771E+002
-1.9040073E+000	-4.517599440502791E-003	1.856964954227078E+002
-1.9208068E+000	-4.429770540797302E-003	1.858650954184486E+002
-1.9377434E+000	-4.280931844403021E-003	1.860335954141920E+002
-1.9545467E+000	-4.168290754299732E-003	1.862022954099302E+002
-1.9713936E+000	-4.239694585545663E-003	1.863711954056635E+002
-1.9882718E+000	-4.021385138042143E-003	1.865397954014043E+002
-2.0051432E+000	-4.017135028089376E-003	1.867082953971476E+002
-2.0219746E+000	-3.901609834120759E-003	1.868769953928859E+002
-2.0387797E+000	-3.869952542631047E-003	1.870455953886267E+002
-2.0557871E+000	-3.975530523791820E-003	1.872145953843574E+002
-2.0725279E+000	-3.887794390038505E-003	1.873834953800906E+002
-2.0893626E+000	-3.883888199127154E-003	1.875517953758390E+002
-2.1062162E+000	-3.824429724519754E-003	1.877197953715950E+002
-2.1231561E+000	-3.850507236011352E-003	1.878887953673257E+002
-2.1399345E+000	-3.819384242814083E-003	1.880580953630488E+002
-2.1568182E+000	-3.840658284842126E-003	1.882264953587946E+002
-2.1735196E+000	-3.863437027485789E-003	1.883944953545506E+002
-2.1904674E+000	-3.957252062317337E-003	1.885629953502939E+002
-2.2073741E+000	-3.960612322147297E-003	1.887311953460448E+002
-2.2241056E+000	-3.923495463748039E-003	1.888990953418033E+002
-2.2356360E+000	-4.140377156906752E-003	1.890150953388729E+002
-2.2387846E+000	-4.139631055295467E-003	1.890493953380064E+002
-2.2432585E+000	-4.107599537437764E-003	1.891351953358389E+002
-2.2314382E+000	-3.884367188473539E-003	1.893033953315899E+002
-2.2145586E+000	-3.637992138509620E-003	1.894720953273281E+002
-2.1977899E+000	-3.675137472761866E-003	1.896410953230588E+002
-2.1809852E+000	-3.472192074365429E-003	1.898100953187895E+002
-2.1641054E+000	-3.337181662690293E-003	1.899791953145177E+002
-2.1472387E+000	-3.317237460563609E-003	1.901478953102560E+002
-2.1303647E+000	-3.246510210134019E-003	1.903165953059943E+002
-2.1135154E+000	-3.141453534658487E-003	1.904855953017250E+002
-2.0967495E+000	-3.115116263729650E-003	1.906538952974734E+002
-2.0797629E+000	-3.073229163758788E-003	1.908222952932192E+002
-2.0629776E+000	-3.079031760703788E-003	1.909910952889550E+002
-2.0461860E+000	-2.910977012895244E-003	1.911596952846958E+002
-2.0291986E+000	-3.004703003534497E-003	1.913286952804265E+002
-2.0124662E+000	-2.815126268960119E-003	1.914975952761597E+002
-1.9954664E+000	-2.838634490764519E-003	1.916660952719030E+002
-1.9786594E+000	-2.772396255682888E-003	1.918348952676388E+002
-1.9617689E+000	-2.735838683652174E-003	1.920038952633695E+002
-1.9448994E+000	-2.756044442128638E-003	1.921724952591103E+002
-1.9280425E+000	-2.699091523712373E-003	1.923413952548435E+002
-1.9110643E+000	-2.773594270760266E-003	1.925106952505666E+002
-1.8942720E+000	-2.877093677475399E-003	1.926792952463074E+002
-1.8776239E+000	-2.621045783524711E-003	1.928471952420659E+002
-1.8606215E+000	-2.632008236316180E-003	1.930153952378168E+002
-1.8439180E+000	-2.509555068655460E-003	1.931840952335551E+002
-1.8269755E+000	-2.559657268950931E-003	1.933526952292959E+002
-1.8100828E+000	-2.557851793571347E-003	1.935215952250292E+002
-1.7932998E+000	-2.429495944627984E-003	1.936902952207674E+002
-1.7763760E+000	-2.373935127348854E-003	1.938591952165007E+002
-1.7594857E+000	-2.226857171974510E-003	1.940287952122162E+002
-1.7424767E+000	-2.041457234899892E-003	1.941983952079318E+002
-1.7257439E+000	-1.602200968423409E-003	1.943669952036726E+002
-1.7088097E+000	-1.251343628674488E-003	1.945353951994184E+002
-1.6920689E+000	-5.832502599461076E-004	1.947040951951567E+002
-1.6751227E+000	8.882353539428471E-005	1.948731951908849E+002
-1.6582036E+000	8.875789173098531E-004	1.950425951866055E+002
-1.6413654E+000	1.635508645694110E-003	1.952116951823336E+002
-1.6244670E+000	2.448199006741397E-003	1.953803951780719E+002
-1.6075075E+000	2.850221875786249E-003	1.955490951738102E+002
-1.5906341E+000	2.957902167808517E-003	1.957176951695510E+002
-1.5736881E+000	2.911797417114982E-003	1.958862951652918E+002
-1.5569295E+000	2.807895000871571E-003	1.960547951610351E+002
-1.5399405E+000	2.468646667661618E-003	1.962229951567861E+002
-1.5233438E+000	2.085703663976852E-003	1.963908951525445E+002
-1.5064446E+000	1.901218751501291E-003	1.965590951482955E+002
-1.4894973E+000	1.557703757961694E-003	1.967279951440287E+002
-1.4726921E+000	1.429514928716267E-003	1.968971951397543E+002
-1.4557124E+000	1.173534558129680E-003	1.970662951354825E+002
-1.4388816E+000	9.134883632010045E-004	1.972351951312157E+002
-1.4222111E+000	9.916780843276709E-004	1.974036951269591E+002
-1.4052241E+000	7.398403124319964E-004	1.975716951227150E+002
-1.3884194E+000	5.315449110731372E-004	1.977392951184811E+002
-1.3717963E+000	6.081562633655849E-004	1.979073951142345E+002
-1.3547901E+000	5.280161153314077E-004	1.980762951099678E+002
-1.3378707E+000	3.171929073853596E-004	1.982453951056959E+002
-1.3210438E+000	3.630608205119996E-004	1.984142951014292E+002
-1.3041664E+000	3.673369085437617E-004	1.985830950971649E+002
-1.2872133E+000	1.528416297034724E-004	1.987519950928981E+002
-1.2704712E+000	-9.666454855626052E-005	1.989203950886440E+002
-1.2536024E+000	8.576816429012963E-005	1.990884950843974E+002
-1.2367851E+000	7.033444037060686E-005	1.992563950801559E+002
-1.2199745E+000	-1.275849290122068E-005	1.994243950759119E+002
-1.2031815E+000	-1.276844155265763E-004	1.995927950716577E+002
-1.1863221E+000	-1.036842805498518E-005	1.997614950673960E+002
-1.1693876E+000	-1.332014932837656E-004	1.999304950631267E+002
-1.1524910E+000	-1.518780787040367E-004	2.000995950588549E+002
-1.1356050E+000	-3.142777947407740E-004	2.002687950545806E+002
-1.1186905E+000	-4.676627280421907E-004	2.004376950503138E+002
-1.1018885E+000	-4.080131283984330E-004	2.006065950460470E+002
-1.0849987E+000	-2.765812354928341E-004	2.007750950417903E+002
-1.0680770E+000	-2.833063978805398E-004	2.009440950375210E+002
-1.0511458E+000	-3.041596475077855E-004	2.011133950332442E+002
-1.0342680E+000	-2.312460277139320E-004	2.012821950289799E+002
-1.0175036E+000	-3.678997354892724E-004	2.014502950247334E+002
-1.0005051E+000	-3.776888507499901E-004	2.016186950204792E+002
-9.8374450E-001	-4.144676968877437E-004	2.017877950162074E+002
-9.6680367E-001	-4.078819959534592E-004	2.019564950119457E+002
-9.5002192E-001	-4.498831267122994E-004	2.021246950076966E+002
-9.3302840E-001	-4.224369083971518E-004	2.022933950034349E+002
-9.1629767E-001	-5.313671455094166E-004	2.024624949991630E+002
-8.9943409E-001	-5.955217743473023E-004	2.026310949949038E+002
-8.8250005E-001	-5.256297706112811E-004	2.027998949906396E+002
-8.6547214E-001	-5.851977796512940E-004	2.029693949863577E+002
-8.4881175E-001	-4.151089375182306E-004	2.031383949820884E+002
-8.3180684E-001	-4.971263644447162E-004	2.033070949778266E+002
-8.1488842E-001	-5.745020071316123E-004	2.034762949735523E+002
-7.9795784E-001	-5.420173909483662E-004	2.036455949692754E+002
-7.8113073E-001	-6.199700923924271E-004	2.038143949650112E+002
-7.6424730E-001	-6.849827112347107E-004	2.039831949607469E+002
-7.4733520E-001	-6.541553264907815E-004	2.041521949564776E+002
-7.3054856E-001	-7.163606985763366E-004	2.043203949522285E+002
-7.1371484E-001	-6.506605208651609E-004	2.044886949479769E+002
-6.9686574E-001	-7.443655844373148E-004	2.046569949437253E+002
-6.7996639E-001	-6.766905587281633E-004	2.048253949394712E+002
-6.6311157E-001	-6.676441240955899E-004	2.049944949351993E+002
-6.4634204E-001	-8.282406771070207E-004	2.051629949309427E+002
-6.2926424E-001	-7.726002141048537E-004	2.053315949266835E+002
-6.1252975E-001	-6.885472087549777E-004	2.055008949224066E+002
-5.9557396E-001	-8.387427441263039E-004	2.056699949181348E+002
-5.7861519E-001	-6.548823228597813E-004	2.058393949138554E+002
-5.6172758E-001	-8.112885662629032E-004	2.060083949095861E+002
-5.4475653E-001	-7.370032945047773E-004	2.061773949053168E+002
-5.2809149E-001	-8.733703056586287E-004	2.063456949010651E+002
-5.1114118E-001	-7.273660011207841E-004	2.065135948968236E+002
-4.9433514E-001	-7.429976565939203E-004	2.066827948925493E+002
-4.7743836E-001	-9.030200434429160E-004	2.068518948882775E+002
-4.6054143E-001	-7.538016898769422E-004	2.070205948840157E+002
-4.4360110E-001	-6.982730264946035E-004	2.071894948797490E+002
-4.2691383E-001	-6.820605475039266E-004	2.073576948754999E+002
-4.0986151E-001	-8.284871787383186E-004	2.075258948712508E+002
-3.9312264E-001	-8.209367613855670E-004	2.076946948669865E+002
-3.7621468E-001	-9.042924186725039E-004	2.078631948627299E+002
-3.5947639E-001	-7.286785017609227E-004	2.080318948584681E+002
-3.4254083E-001	-7.469351512947742E-004	2.082004948542090E+002
-3.2556081E-001	-7.205556249229340E-004	2.083694948499397E+002
-3.0877119E-001	-7.573409129547426E-004	2.085382948456754E+002
-2.9176819E-001	-8.720381578103120E-004	2.087069948414137E+002
-2.7496976E-001	-7.275693301855455E-004	2.088761948371393E+002
-2.5798452E-001	-7.920923084733635E-004	2.090453948328650E+002
-2.4110381E-001	-7.716069356780257E-004	2.092145948285906E+002
-2.2417010E-001	-7.842384253793806E-004	2.093837948243163E+002
-2.0725082E-001	-6.395592846446252E-004	2.095529948200419E+002
-1.9029528E-001	-7.247864994726809E-004	2.097221948157676E+002
-1.7341724E-001	-7.505377107089491E-004	2.098909948115033E+002
-1.5659808E-001	-6.641120780471570E-004	2.100597948072391E+002
-1.3975792E-001	-6.535264737543203E-004	2.102282948029824E+002
-1.2287113E-001	-6.318273805914643E-004	2.103964947987333E+002
-1.0604563E-001	-5.373147891650620E-004	2.105648947944792E+002
-8.9024365E-002	-5.916343847712866E-004	2.107340947902048E+002
-7.2306007E-002	-5.985828646569852E-004	2.109027947859431E+002
-5.5408373E-002	-5.526399868588817E-004	2.110711947816890E+002
-3.8465261E-002	-6.067787555060541E-004	2.112398947774273E+002
-2.1798830E-002	-6.152480640253932E-004	2.114079947731807E+002
-1.0858263E-002	-5.489075096569629E-004	2.115150947704751E+002
-8.4781367E-003	-3.836057185253594E-004	2.115405947698309E+002
-4.3746899E-003	-4.974864860118134E-004	2.116264947676609E+002
-1.6779887E-002	-7.429465505802528E-004	2.117950947634017E+002
-3.3719163E-002	-7.672584789872074E-004	2.119637947591400E+002
-5.0469901E-002	-8.883825596086607E-004	2.121324947548783E+002
-6.7233108E-002	-9.506666056605644E-004	2.123011947506166E+002
-8.4191069E-002	-8.908574189945583E-004	2.124698947463548E+002
-1.0101139E-001	-9.906674695657602E-004	2.126387947420881E+002
-1.1783274E-001	-1.026258805247367E-003	2.128077947378188E+002
-1.3476041E-001	-1.061197465819825E-003	2.129767947335495E+002
-1.5159367E-001	-1.116511142762521E-003	2.131456947292827E+002
-1.6839860E-001	-1.056726407305905E-003	2.133134947250437E+002
-1.8525946E-001	-1.059787906593394E-003	2.134816947207946E+002
-2.0202962E-001	-1.174317134032151E-003	2.136508947165203E+002
-2.1899587E-001	-1.063034062613233E-003	2.138199947122484E+002
-2.3568383E-001	-1.077829169547796E-003	2.139883947079943E+002
-2.5265798E-001	-1.176002198976198E-003	2.141566947037427E+002
-2.6374769E-001	-1.093699514804005E-003	2.142664947009689E+002
-2.6628557E-001	-1.082062710858216E-003	2.142915947003348E+002